# Top-of-atmosphere (TOA) lunar irradiance from Miller and Turner (2009)
# First column wavelength (nm), second column TOA irradiance# Lunar phase angle: 153
# Irradiance units: mW/m^2-micrometer

300 0.3104
301 0.2308
302 0.2906
303 0.2776
304 0.3926
305 0.3656
306 0.3732
307 0.3452
308 0.4014
309 0.4048
310 0.309
311 0.4105
312 0.4869
313 0.4229
314 0.4587
315 0.4214
316 0.4339
317 0.3965
318 0.5521
319 0.4246
320 0.4679
321 0.5779
322 0.4584
323 0.4804
324 0.4479
325 0.5368
326 0.6011
327 0.6853
328 0.6652
329 0.6184
330 0.76
331 0.7016
332 0.6947
333 0.6741
334 0.6457
335 0.6906
336 0.7039
337 0.5572
338 0.6117
339 0.6565
340 0.6837
341 0.7551
342 0.662
343 0.7365
344 0.7403
345 0.534
346 0.7287
347 0.6763
348 0.6709
349 0.6995
350 0.6305
351 0.8332
352 0.7435
353 0.6659
354 0.8036
355 0.855
356 0.8016
357 0.7166
358 0.6508
359 0.4859
360 0.8313
361 0.784
362 0.6949
363 0.7944
364 0.7501
365 0.8095
366 0.9291
367 0.989
368 0.9538
369 0.8509
370 1.001
371 0.8877
372 1.027
373 0.8482
374 0.7323
375 0.7472
376 0.898
377 0.8813
378 1.062
379 1.14
380 0.8719
381 1.021
382 0.9279
383 0.6656
384 0.5546
385 0.8044
386 0.8464
387 0.8571
388 0.8373
389 0.8053
390 1.03
391 1.054
392 1.227
393 0.9276
394 0.404
395 0.9354
396 1.21
397 0.6432
398 0.7231
399 1.378
400 1.482
401 1.489
402 1.62
403 1.645
404 1.612
405 1.575
406 1.531
407 1.491
408 1.512
409 1.533
410 1.546
411 1.432
412 1.491
413 1.549
414 1.608
415 1.615
416 1.619
417 1.639
418 1.607
419 1.606
420 1.607
421 1.647
422 1.679
423 1.621
424 1.602
425 1.641
426 1.629
427 1.623
428 1.562
429 1.562
430 1.417
431 1.184
432 1.467
433 1.621
434 1.6
435 1.567
436 1.685
437 1.779
438 1.725
439 1.659
440 1.728
441 1.804
442 1.873
443 1.931
444 1.937
445 1.939
446 1.907
447 1.895
448 2.007
449 2.032
450 2.054
451 2.147
452 2.157
453 2.057
454 2.005
455 2.098
456 2.113
457 2.171
458 2.173
459 2.121
460 2.109
461 2.142
462 2.177
463 2.199
464 2.176
465 2.128
466 2.13
467 2.114
468 2.104
469 2.142
470 2.128
471 2.098
472 2.151
473 2.218
474 2.191
475 2.24
476 2.24
477 2.21
478 2.269
479 2.27
480 2.27
481 2.26
482 2.278
483 2.258
484 2.231
485 2.205
486 2.008
487 1.897
488 2.055
489 2.12
490 2.208
491 2.241
492 2.164
493 2.16
494 2.188
495 2.242
496 2.244
497 2.237
498 2.221
499 2.186
500 2.184
501 2.15
502 2.109
503 2.155
504 2.197
505 2.19
506 2.272
507 2.309
508 2.276
509 2.244
510 2.21
511 2.187
512 2.232
513 2.209
514 2.158
515 2.132
516 2.165
517 2.018
518 1.899
519 1.972
520 2.112
521 2.153
522 2.194
523 2.152
524 2.191
525 2.259
526 2.236
527 2.049
528 2.099
529 2.235
530 2.259
531 2.293
532 2.299
533 2.275
534 2.245
535 2.254
536 2.322
537 2.271
538 2.273
539 2.29
540 2.24
541 2.197
542 2.246
543 2.274
544 2.295
545 2.317
546 2.324
547 2.327
548 2.301
549 2.314
550 2.343
551 2.333
552 2.343
553 2.341
554 2.336
555 2.362
556 2.352
557 2.305
558 2.279
559 2.251
560 2.222
561 2.278
562 2.301
563 2.276
564 2.289
565 2.296
566 2.278
567 2.281
568 2.323
569 2.306
570 2.302
571 2.28
572 2.286
573 2.377
574 2.39
575 2.371
576 2.338
577 2.349
578 2.356
579 2.325
580 2.345
581 2.368
582 2.381
583 2.406
584 2.41
585 2.395
586 2.353
587 2.35
588 2.385
589 2.295
590 2.199
591 2.307
592 2.363
593 2.37
594 2.368
595 2.378
596 2.369
597 2.387
598 2.386
599 2.366
600 2.373
601 2.361
602 2.335
603 2.347
604 2.392
605 2.402
606 2.391
607 2.384
608 2.376
609 2.356
610 2.345
611 2.347
612 2.353
613 2.344
614 2.317
615 2.317
616 2.3
617 2.259
618 2.296
619 2.332
620 2.349
621 2.372
622 2.357
623 2.344
624 2.333
625 2.314
626 2.308
627 2.355
628 2.385
629 2.388
630 2.363
631 2.354
632 2.322
633 2.352
634 2.341
635 2.351
636 2.352
637 2.347
638 2.381
639 2.382
640 2.336
641 2.319
642 2.311
643 2.338
644 2.331
645 2.336
646 2.318
647 2.323
648 2.341
649 2.336
650 2.268
651 2.35
652 2.364
653 2.331
654 2.313
655 2.279
656 2.13
657 1.958
658 2.169
659 2.275
660 2.284
661 2.305
662 2.32
663 2.314
664 2.287
665 2.295
666 2.302
667 2.29
668 2.285
669 2.301
670 2.297
671 2.289
672 2.28
673 2.274
674 2.271
675 2.268
676 2.265
677 2.263
678 2.261
679 2.259
680 2.257
681 2.256
682 2.255
683 2.254
684 2.253
685 2.253
686 2.253
687 2.253
688 2.254
689 2.258
690 2.271
691 2.276
692 2.265
693 2.258
694 2.263
695 2.251
696 2.25
697 2.257
698 2.228
699 2.256
700 2.263
701 2.233
702 2.219
703 2.229
704 2.241
705 2.265
706 2.251
707 2.224
708 2.228
709 2.209
710 2.195
711 2.204
712 2.175
713 2.167
714 2.173
715 2.169
716 2.162
717 2.172
718 2.17
719 2.142
720 2.144
721 2.149
722 2.15
723 2.148
724 2.158
725 2.153
726 2.136
727 2.142
728 2.139
729 2.1
730 2.092
731 2.131
732 2.127
733 2.126
734 2.127
735 2.128
736 2.106
737 2.101
738 2.099
739 2.052
740 2.056
741 2.045
742 2.03
743 2.062
744 2.093
745 2.072
746 2.094
747 2.087
748 2.095
749 2.083
750 2.06
