# Top-of-atmosphere (TOA) lunar irradiance from Miller and Turner (2009)
# First column wavelength (nm), second column TOA irradiance# Lunar phase angle: 176
# Irradiance units: mW/m^2-micrometer

300 0.5725
301 0.4256
302 0.5357
303 0.5118
304 0.7237
305 0.6738
306 0.6877
307 0.636
308 0.7394
309 0.7456
310 0.5691
311 0.7559
312 0.8965
313 0.7785
314 0.8443
315 0.7756
316 0.7984
317 0.7295
318 1.016
319 0.7809
320 0.8604
321 1.063
322 0.8428
323 0.883
324 0.8233
325 0.9864
326 1.105
327 1.259
328 1.222
329 1.136
330 1.396
331 1.288
332 1.275
333 1.237
334 1.185
335 1.267
336 1.292
337 1.022
338 1.122
339 1.204
340 1.254
341 1.384
342 1.214
343 1.35
344 1.357
345 0.9785
346 1.335
347 1.239
348 1.229
349 1.281
350 1.154
351 1.525
352 1.361
353 1.219
354 1.47
355 1.564
356 1.467
357 1.311
358 1.19
359 0.8885
360 1.52
361 1.433
362 1.27
363 1.452
364 1.371
365 1.479
366 1.697
367 1.806
368 1.742
369 1.554
370 1.828
371 1.62
372 1.874
373 1.548
374 1.336
375 1.363
376 1.638
377 1.607
378 1.937
379 2.079
380 1.589
381 1.861
382 1.691
383 1.213
384 1.011
385 1.465
386 1.542
387 1.561
388 1.525
389 1.466
390 1.874
391 1.918
392 2.232
393 1.688
394 0.7351
395 1.702
396 2.201
397 1.17
398 1.315
399 2.505
400 2.694
401 2.707
402 2.944
403 2.99
404 2.928
405 2.861
406 2.78
407 2.707
408 2.745
409 2.783
410 2.806
411 2.6
412 2.705
413 2.811
414 2.918
415 2.929
416 2.935
417 2.973
418 2.913
419 2.911
420 2.913
421 2.985
422 3.042
423 2.937
424 2.901
425 2.972
426 2.951
427 2.938
428 2.829
429 2.827
430 2.565
431 2.142
432 2.654
433 2.932
434 2.894
435 2.834
436 3.046
437 3.217
438 3.118
439 2.998
440 3.123
441 3.26
442 3.384
443 3.488
444 3.498
445 3.501
446 3.443
447 3.421
448 3.623
449 3.668
450 3.706
451 3.873
452 3.892
453 3.71
454 3.616
455 3.783
456 3.81
457 3.915
458 3.917
459 3.822
460 3.799
461 3.86
462 3.922
463 3.961
464 3.918
465 3.833
466 3.834
467 3.805
468 3.786
469 3.855
470 3.828
471 3.774
472 3.869
473 3.99
474 3.939
475 4.027
476 4.026
477 3.973
478 4.079
479 4.079
480 4.078
481 4.059
482 4.092
483 4.056
484 4.005
485 3.959
486 3.604
487 3.405
488 3.688
489 3.805
490 3.962
491 4.021
492 3.882
493 3.874
494 3.923
495 4.019
496 4.022
497 4.01
498 3.98
499 3.916
500 3.912
501 3.851
502 3.777
503 3.859
504 3.934
505 3.92
506 4.067
507 4.132
508 4.073
509 4.015
510 3.953
511 3.912
512 3.991
513 3.951
514 3.857
515 3.811
516 3.87
517 3.606
518 3.393
519 3.523
520 3.773
521 3.845
522 3.918
523 3.842
524 3.912
525 4.033
526 3.991
527 3.655
528 3.745
529 3.988
530 4.03
531 4.09
532 4.1
533 4.057
534 4.003
535 4.017
536 4.139
537 4.047
538 4.05
539 4.079
540 3.989
541 3.912
542 4
543 4.049
544 4.086
545 4.124
546 4.136
547 4.14
548 4.094
549 4.116
550 4.168
551 4.149
552 4.166
553 4.162
554 4.152
555 4.197
556 4.179
557 4.095
558 4.048
559 3.998
560 3.946
561 4.045
562 4.084
563 4.04
564 4.062
565 4.075
566 4.042
567 4.047
568 4.121
569 4.09
570 4.082
571 4.043
572 4.053
573 4.213
574 4.235
575 4.202
576 4.142
577 4.162
578 4.172
579 4.118
580 4.152
581 4.192
582 4.214
583 4.259
584 4.266
585 4.237
586 4.164
587 4.158
588 4.217
589 4.058
590 3.888
591 4.078
592 4.177
593 4.189
594 4.185
595 4.201
596 4.185
597 4.217
598 4.214
599 4.178
600 4.19
601 4.167
602 4.121
603 4.141
604 4.22
605 4.239
606 4.218
607 4.205
608 4.19
609 4.154
610 4.134
611 4.138
612 4.148
613 4.131
614 4.082
615 4.081
616 4.052
617 3.979
618 4.044
619 4.107
620 4.135
621 4.175
622 4.149
623 4.126
624 4.105
625 4.071
626 4.059
627 4.141
628 4.195
629 4.199
630 4.154
631 4.137
632 4.08
633 4.133
634 4.113
635 4.129
636 4.13
637 4.122
638 4.181
639 4.182
640 4.1
641 4.071
642 4.056
643 4.101
644 4.09
645 4.098
646 4.065
647 4.073
648 4.104
649 4.095
650 3.975
651 4.118
652 4.142
653 4.084
654 4.053
655 3.991
656 3.73
657 3.429
658 3.797
659 3.983
660 3.998
661 4.034
662 4.059
663 4.047
664 4.001
665 4.014
666 4.025
667 4.004
668 3.996
669 4.023
670 4.014
671 4.001
672 3.983
673 3.973
674 3.967
675 3.961
676 3.956
677 3.951
678 3.947
679 3.943
680 3.939
681 3.937
682 3.934
683 3.932
684 3.93
685 3.929
686 3.929
687 3.928
688 3.928
689 3.936
690 3.958
691 3.965
692 3.946
693 3.933
694 3.941
695 3.92
696 3.917
697 3.93
698 3.878
699 3.926
700 3.937
701 3.885
702 3.86
703 3.877
704 3.897
705 3.938
706 3.913
707 3.867
708 3.872
709 3.838
710 3.813
711 3.829
712 3.778
713 3.764
714 3.773
715 3.766
716 3.753
717 3.77
718 3.766
719 3.718
720 3.72
721 3.728
722 3.73
723 3.726
724 3.742
725 3.733
726 3.703
727 3.714
728 3.707
729 3.639
730 3.624
731 3.692
732 3.684
733 3.682
734 3.683
735 3.685
736 3.646
737 3.636
738 3.632
739 3.551
740 3.557
741 3.537
742 3.512
743 3.565
744 3.618
745 3.582
746 3.62
747 3.607
748 3.62
749 3.599
750 3.559
